# Depth(m), Pressure(Pa), Temperature(K), X_H2O, X_CH4, X_C2H6, X_CO, X_CO2
1.53147952e+05 3.00005123e+06 4.68839141e+02 8.37654945e-03 2.02575726e-03 3.29943100e-11 5.15117517e-11 1.29799265e-12
1.62928533e+05 3.43961793e+06 4.88201691e+02 8.37654945e-03 2.02575725e-03 3.44392879e-11 5.55507022e-11 1.40117118e-12
1.72709114e+05 3.92334205e+06 5.07577864e+02 8.37654944e-03 2.02575724e-03 3.72191893e-11 6.34252994e-11 1.60280993e-12
1.82489695e+05 4.45280727e+06 5.26939828e+02 8.37654942e-03 2.02575722e-03 4.12575297e-11 7.51119443e-11 1.90321814e-12
1.92270276e+05 5.03075923e+06 5.46296433e+02 8.37654941e-03 2.02575719e-03 4.65032838e-11 9.07288095e-11 2.30677269e-12
2.02050856e+05 5.65963557e+06 5.65645813e+02 8.37654939e-03 2.02575716e-03 5.29233456e-11 1.10501289e-10 2.82107585e-12
2.11831437e+05 6.34193594e+06 5.84986883e+02 8.37654936e-03 2.02575712e-03 6.04958512e-11 1.34730419e-10 3.45620495e-12
2.21612018e+05 7.08023958e+06 6.04319183e+02 8.37654933e-03 2.02575707e-03 6.92039540e-11 1.63762108e-10 4.22398522e-12
2.31392599e+05 7.87713332e+06 6.23641477e+02 8.37654930e-03 2.02575702e-03 7.90302039e-11 1.97956888e-10 5.13726509e-12
2.41173180e+05 8.73525167e+06 6.42952609e+02 8.37654925e-03 2.02575696e-03 8.99515468e-11 2.37659823e-10 6.20917191e-12
2.50953760e+05 9.65726212e+06 6.62251311e+02 8.37654921e-03 2.02575689e-03 1.01934987e-10 2.83170631e-10 7.45233723e-12
2.60734341e+05 1.06458697e+07 6.81536236e+02 8.37654915e-03 2.02575681e-03 1.14934000e-10 3.34714568e-10 8.87809490e-12
2.70514922e+05 1.17038186e+07 7.00805969e+02 8.37654909e-03 2.02575672e-03 1.28885759e-10 3.92414954e-10 1.04956647e-11
2.80295503e+05 1.28338909e+07 7.20059024e+02 8.37654902e-03 2.02575662e-03 1.43709282e-10 4.56268968e-10 1.23113458e-11
2.90076084e+05 1.40389051e+07 7.39293879e+02 8.37654895e-03 2.02575652e-03 1.59304603e-10 5.26129288e-10 1.43277507e-11
2.99856664e+05 1.53217184e+07 7.58509006e+02 8.37654887e-03 2.02575641e-03 1.75553309e-10 6.01696471e-10 1.65431161e-11
3.09637245e+05 1.66852283e+07 7.77702878e+02 8.37654878e-03 2.02575629e-03 1.92321721e-10 6.82533219e-10 1.89507205e-11
3.19417826e+05 1.81323731e+07 7.96873964e+02 8.37654869e-03 2.02575617e-03 2.09471237e-10 7.68129763e-10 2.15384240e-11
3.29198407e+05 1.96661296e+07 8.16020731e+02 8.37654860e-03 2.02575604e-03 2.26890584e-10 8.58080499e-10 2.42883488e-11
3.38978988e+05 2.12895149e+07 8.35141673e+02 8.37654850e-03 2.02575591e-03 2.44590815e-10 9.52521586e-10 2.71767871e-11
3.48759568e+05 2.30055885e+07 8.54235325e+02 8.37654839e-03 2.02575577e-03 2.62955263e-10 1.05308537e-09 3.01749519e-11
3.58540149e+05 2.48174531e+07 8.73300281e+02 8.37654827e-03 2.02575561e-03 2.83287530e-10 1.16484273e-09 3.32529269e-11
3.68320730e+05 2.67282534e+07 8.92335184e+02 8.37654813e-03 2.02575542e-03 3.08689760e-10 1.29982783e-09 3.63940569e-11
3.78101311e+05 2.87411755e+07 9.11338728e+02 8.37654794e-03 2.02575516e-03 3.44649941e-10 1.48255338e-09 3.96373659e-11
3.87881892e+05 3.08594505e+07 9.30309672e+02 8.37654766e-03 2.02575478e-03 3.97660041e-10 1.75698015e-09 4.31786399e-11
3.97662472e+05 3.30863552e+07 9.49246849e+02 8.37654721e-03 2.02575419e-03 4.71282469e-10 2.19258572e-09 4.75542570e-11
4.07443053e+05 3.54252111e+07 9.68149181e+02 8.37654650e-03 2.02575330e-03 5.64360207e-10 2.88599649e-09 5.38505718e-11
4.17223634e+05 3.78793832e+07 9.87015672e+02 8.37654541e-03 2.02575199e-03 6.74788074e-10 3.95718354e-09 6.37114504e-11
4.27004215e+05 4.04522836e+07 1.00584541e+03 8.37654378e-03 2.02575012e-03 8.02044247e-10 5.54570125e-09 7.89034306e-11
4.36784796e+05 4.31473719e+07 1.02463755e+03 8.37654146e-03 2.02574753e-03 9.46925260e-10 7.81491090e-09 1.00724975e-10
4.46565376e+05 4.59681551e+07 1.04339136e+03 8.37653825e-03 2.02574401e-03 1.11079805e-09 1.09638292e-08 1.30022341e-10
4.56345957e+05 4.89181858e+07 1.06210615e+03 8.37653389e-03 2.02573931e-03 1.29511997e-09 1.52370084e-08 1.67783925e-10
4.66126538e+05 5.20010649e+07 1.08078136e+03 8.37652810e-03 2.02573313e-03 1.50135717e-09 2.09264645e-08 2.15326503e-10
4.75907119e+05 5.52204435e+07 1.09941645e+03 8.37652052e-03 2.02572512e-03 1.73097425e-09 2.83751050e-08 2.73924396e-10
4.85687700e+05 5.85800215e+07 1.11801102e+03 8.37651074e-03 2.02571487e-03 1.98542664e-09 3.79901293e-08 3.45026125e-10
4.95468280e+05 6.20835461e+07 1.13656469e+03 8.37649829e-03 2.02570190e-03 2.26615329e-09 5.02505992e-08 4.30393816e-10
5.05248861e+05 6.57348147e+07 1.15507716e+03 8.37648261e-03 2.02568563e-03 2.57456956e-09 6.57076148e-08 5.31959155e-10
5.15029442e+05 6.95376768e+07 1.17354819e+03 8.37646306e-03 2.02566544e-03 2.91206045e-09 8.49858174e-08 6.51760950e-10
5.24810023e+05 7.34960319e+07 1.19197759e+03 8.37643894e-03 2.02564061e-03 3.27997440e-09 1.08785232e-07 7.91923804e-10
5.34590604e+05 7.76138281e+07 1.21036525e+03 8.37640947e-03 2.02561035e-03 3.67961741e-09 1.37882098e-07 9.54638984e-10
5.44371184e+05 8.18950663e+07 1.22871107e+03 8.37637380e-03 2.02557379e-03 4.11224754e-09 1.73128420e-07 1.14214339e-09
5.54151765e+05 8.63438005e+07 1.24701505e+03 8.37633099e-03 2.02553000e-03 4.57906998e-09 2.15450175e-07 1.35669703e-09
5.63932346e+05 9.09641354e+07 1.26527720e+03 8.37628003e-03 2.02547794e-03 5.08123244e-09 2.65844166e-07 1.60055944e-09
5.73712927e+05 9.57602264e+07 1.28349760e+03 8.37621987e-03 2.02541655e-03 5.61982109e-09 3.25373502e-07 1.87596548e-09
5.83493508e+05 1.00736283e+08 1.30167639e+03 8.37614936e-03 2.02534465e-03 6.19585679e-09 3.95161735e-07 2.18510069e-09
5.93274088e+05 1.05896570e+08 1.31981372e+03 8.37606733e-03 2.02526106e-03 6.81029163e-09 4.76385725e-07 2.53007698e-09
6.03054669e+05 1.11245401e+08 1.33790981e+03 8.37597254e-03 2.02516450e-03 7.46400553e-09 5.70267303e-07 2.91290867e-09
6.12835250e+05 1.16787145e+08 1.35596486e+03 8.37586374e-03 2.02505370e-03 8.15780306e-09 6.78063780e-07 3.33548913e-09
6.22615831e+05 1.22526224e+08 1.37397910e+03 8.37573963e-03 2.02492731e-03 8.89241113e-09 8.01057573e-07 3.79956894e-09
6.32396412e+05 1.28467117e+08 1.39195277e+03 8.37559892e-03 2.02478400e-03 9.66847732e-09 9.40545127e-07 4.30673583e-09
6.42176992e+05 1.34614355e+08 1.40988614e+03 8.37544029e-03 2.02462242e-03 1.04865688e-08 1.09782525e-06 4.85839643e-09
6.51957573e+05 1.40972521e+08 1.42777947e+03 8.37526246e-03 2.02444121e-03 1.13471719e-08 1.27418709e-06 5.45576017e-09
6.61738154e+05 1.47546261e+08 1.44563306e+03 8.37506414e-03 2.02423904e-03 1.22506921e-08 1.47089801e-06 6.09982577e-09
6.71518735e+05 1.54340270e+08 1.46344725e+03 8.37484410e-03 2.02401461e-03 1.31974543e-08 1.68919166e-06 6.79137084e-09
6.81299316e+05 1.61359299e+08 1.48122239e+03 8.37460115e-03 2.02376665e-03 1.41877030e-08 1.93025610e-06 7.53094331e-09
6.91079896e+05 1.68608157e+08 1.49895889e+03 8.37433414e-03 2.02349393e-03 1.52216028e-08 2.19522223e-06 8.31885536e-09
7.00860477e+05 1.76091708e+08 1.51665715e+03 8.37404202e-03 2.02319531e-03 1.62992398e-08 2.48515292e-06 9.15518007e-09
7.10641058e+05 1.83814872e+08 1.53431761e+03 8.37372378e-03 2.02286968e-03 1.74206216e-08 2.80103229e-06 1.00397493e-08
7.20421639e+05 1.91782625e+08 1.55194070e+03 8.37337854e-03 2.02251605e-03 1.85856789e-08 3.14375539e-06 1.09721524e-08
7.30202220e+05 2.00000000e+08 1.56952683e+03 8.37304809e-03 2.02217724e-03 1.96613855e-08 3.47181184e-06 1.18428385e-08
